CAD,Pressure [bar]
-360,1.007867022
-359.9,1.007381215
-359.8,1.005894809
-359.7,1.004223322
-359.6,1.002846809
-359.5,1.001603323
-359.4,1.001030759
-359.3,1.000458194
-359.2,1.000041793
-359.1,0.999237876
-359,0.997872931
-358.9,0.996461715
-358.8,0.995137256
-358.7,0.994443231
-358.6,0.994761373
-358.5,0.995166271
-358.4,0.996143766
-358.3,0.996652772
-358.2,0.996230587
-358.1,0.995276291
-358,0.993662642
-357.9,0.991881263
-357.8,0.99084021
-357.7,0.990099915
-357.6,0.989961136
-357.5,0.989724032
-357.4,0.988960602
-357.3,0.987855928
-357.2,0.986294333
-357.1,0.984570792
-357,0.983709037
-356.9,0.983350473
-356.8,0.983697534
-356.7,0.984229676
-356.6,0.984241275
-356.5,0.98357617
-356.4,0.982147602
-356.3,0.980458764
-356.2,0.979007061
-356.1,0.977913955
-356,0.977312471
-355.9,0.977167908
-355.8,0.976913453
-355.7,0.976583808
-355.6,0.975687351
-355.5,0.974484351
-355.4,0.973223514
-355.3,0.972107272
-355.2,0.971534708
-355.1,0.971690903
-355,0.971609961
-354.9,0.971575291
-354.8,0.971228295
-354.7,0.970407026
-354.6,0.96972457
-354.5,0.968804977
-354.4,0.968128304
-354.3,0.96776974
-354.2,0.96753842
-354.1,0.967179856
-354,0.966474265
-353.9,0.965334887
-353.8,0.96402778
-353.7,0.962911538
-353.6,0.961951459
-353.5,0.961459867
-353.4,0.961511954
-353.3,0.961517769
-353.2,0.961604558
-353.1,0.961523617
-353,0.961402189
-352.9,0.960980004
-352.8,0.9607429
-352.7,0.960719797
-352.6,0.960916478
-352.5,0.96132716
-352.4,0.961523842
-352.3,0.961500738
-352.2,0.960968661
-352.1,0.959950743
-352,0.958516392
-351.9,0.957301825
-351.8,0.956150881
-351.7,0.955248639
-351.6,0.954629804
-351.5,0.954028321
-351.4,0.953380567
-351.3,0.952640272
-351.2,0.951616571
-351.1,0.950691195
-351,0.94999717
-350.9,0.949534498
-350.8,0.949314746
-350.7,0.949077642
-350.6,0.948765348
-350.5,0.948389433
-350.4,0.948013518
-350.3,0.947579765
-350.2,0.947169147
-350.1,0.946660204
-350,0.946411533
-349.9,0.946157077
-349.8,0.946105055
-349.7,0.946064601
-349.6,0.945925821
-349.5,0.945544122
-349.4,0.945133504
-349.3,0.94456094
-349.2,0.943999943
-349.1,0.943485217
-349,0.943115085
-348.9,0.942924252
-348.8,0.942450012
-348.7,0.941929502
-348.6,0.941212342
-348.5,0.940148154
-348.4,0.939159156
-348.3,0.938337888
-348.2,0.937672783
-348.1,0.937291084
-348,0.937256413
-347.9,0.937106066
-347.8,0.93700199
-347.7,0.936608723
-347.6,0.935943618
-347.5,0.935353702
-347.4,0.934758002
-347.3,0.934411006
-347.2,0.934243308
-347.1,0.93416815
-347,0.934208669
-346.9,0.934104593
-346.8,0.933699758
-346.7,0.933312276
-346.6,0.932641386
-346.5,0.932282823
-346.4,0.932219233
-346.3,0.932230833
-346.2,0.93242173
-346.1,0.932335005
-346,0.932138388
-345.9,0.93165258
-345.8,0.931062664
-345.7,0.930617344
-345.6,0.930218293
-345.5,0.930010108
-345.4,0.929749869
-345.3,0.929119467
-345.2,0.928517983
-345.1,0.927650445
-345,0.92662096
-344.9,0.925811259
-344.8,0.924949505
-344.7,0.924203426
-344.6,0.923642429
-344.5,0.923098784
-344.4,0.922896383
-344.3,0.922601441
-344.2,0.922219742
-344.1,0.922075179
-344,0.922092562
-343.9,0.922098378
-343.8,0.922179383
-343.7,0.922225686
-343.6,0.92245707
-343.5,0.922503373
-343.4,0.92240508
-343.3,0.922324139
-343.2,0.922156441
-343.1,0.92183258
-343,0.921497151
-342.9,0.921161723
-342.8,0.920612293
-342.7,0.920028161
-342.6,0.919420894
-342.5,0.918755789
-342.4,0.918090683
-342.3,0.917506551
-342.2,0.916957122
-342.1,0.916453963
-342,0.916268913
-341.9,0.916332567
-341.8,0.916349951
-341.7,0.916402037
-341.6,0.91637315
-341.5,0.916245938
-341.4,0.915875807
-341.3,0.915413135
-341.2,0.915031436
-341.1,0.914800116
-341,0.914759661
-340.9,0.914730774
-340.8,0.91469032
-340.7,0.914447432
-340.6,0.914256598
-340.5,0.913828629
-340.4,0.913498984
-340.3,0.913308151
-340.2,0.91315202
-340.1,0.913290863
-340,0.913383436
-339.9,0.913406604
-339.8,0.913308311
-339.7,0.913036504
-339.6,0.912492859
-339.5,0.911897159
-339.4,0.911411352
-339.3,0.911058572
-339.2,0.910561197
-339.1,0.910185282
-339,0.909925042
-338.9,0.909716858
-338.8,0.909213699
-338.7,0.908779946
-338.6,0.908508139
-338.5,0.908398279
-338.4,0.908583392
-338.3,0.908901534
-338.2,0.909213891
-338.1,0.909578303
-338,0.909850173
-337.9,0.909925395
-337.8,0.909827102
-337.7,0.909763513
-337.6,0.909671004
-337.5,0.909607414
-337.4,0.909699987
-337.3,0.909844614
-337.2,0.909908268
-337.1,0.909995057
-337,0.909827359
-336.9,0.909700147
-336.8,0.909578719
-336.7,0.909387886
-336.6,0.909422621
-336.5,0.909463139
-336.4,0.909382198
-336.3,0.909278122
-336.2,0.909133559
-336.1,0.908809698
-336,0.908422215
-335.9,0.908063651
-335.8,0.907855466
-335.7,0.907670417
-335.6,0.907462232
-335.5,0.907381291
-335.4,0.907230944
-335.3,0.906999624
-335.2,0.906791439
-335.1,0.906693146
-335,0.906479177
-334.9,0.906519696
-334.8,0.906710594
-334.7,0.90717333
-334.6,0.907566661
-334.5,0.90782118
-334.4,0.90804678
-334.3,0.908075732
-334.2,0.907896466
-334.1,0.907705632
-334,0.907595772
-333.9,0.907659426
-333.8,0.90776935
-333.7,0.907526463
-333.6,0.907376116
-333.5,0.906977065
-333.4,0.906427636
-333.3,0.905924477
-333.2,0.905629535
-333.1,0.905508107
-333,0.905560194
-332.9,0.905664334
-332.8,0.905733772
-332.7,0.905623912
-332.6,0.90520751
-332.5,0.904883649
-332.4,0.904721734
-332.3,0.904814307
-332.2,0.905045692
-332.1,0.905589401
-332,0.90591911
-331.9,0.905959629
-331.8,0.906011715
-331.7,0.905791962
-331.6,0.905554859
-331.5,0.905450782
-331.4,0.905502868
-331.3,0.90586728
-331.2,0.906121799
-331.1,0.906144967
-331,0.906006187
-330.9,0.905543515
-330.8,0.905040356
-330.7,0.904687576
-330.6,0.904409986
-330.5,0.904219152
-330.4,0.904213401
-330.3,0.904317541
-330.2,0.904277087
-330.1,0.904196145
-330,0.903930123
-329.9,0.903681451
-329.8,0.903450131
-329.7,0.903282433
-329.6,0.903317168
-329.5,0.903467579
-329.4,0.903756801
-329.3,0.903837806
-329.2,0.903907244
-329.1,0.903976681
-329,0.90384947
-328.9,0.903780096
-328.8,0.90384375
-328.7,0.903924755
-328.6,0.904179275
-328.5,0.904375956
-328.4,0.904578421
-328.3,0.904688346
-328.2,0.904624756
-328.1,0.904509112
-328,0.904439738
-327.9,0.904358797
-327.8,0.904520776
-327.7,0.904717457
-327.6,0.904902571
-327.5,0.904948873
-327.4,0.904833229
-327.3,0.904567206
-327.2,0.904278048
-327.1,0.903931052
-327,0.903734435
-326.9,0.903532034
-326.8,0.90346266
-326.7,0.903456908
-326.6,0.903555265
-326.5,0.903433837
-326.4,0.903266139
-326.3,0.903231468
-326.2,0.903179446
-326.1,0.903208397
-326,0.903243132
-325.9,0.90328365
-325.8,0.903306818
-325.7,0.903324201
-325.6,0.903220125
-325.5,0.903081346
-325.4,0.90294835
-325.3,0.902878977
-325.2,0.902838522
-325.1,0.90283277
-325,0.902763397
-324.9,0.902665104
-324.8,0.902468487
-324.7,0.902167761
-324.6,0.901803413
-324.5,0.901346525
-324.4,0.900826015
-324.3,0.900386478
-324.2,0.89990067
-324.1,0.899542107
-324,0.899252948
-323.9,0.898819195
-323.8,0.898206144
-323.7,0.897674066
-323.6,0.897217178
-323.5,0.89685283
-323.4,0.896627294
-323.3,0.896517434
-323.2,0.89644806
-323.1,0.896349768
-323,0.896170502
-322.9,0.895823506
-322.8,0.895499645
-322.7,0.895135297
-322.6,0.894909761
-322.5,0.894782549
-322.4,0.894661121
-322.3,0.89445872
-322.2,0.894198481
-322.1,0.893718458
-322,0.893174812
-321.9,0.892399814
-321.8,0.891711574
-321.7,0.891034901
-321.6,0.890514391
-321.5,0.890144259
-321.4,0.889652668
-321.3,0.889114806
-321.2,0.888351376
-321.1,0.887657352
-321,0.887050085
-320.9,0.886639467
-320.8,0.886251984
-320.7,0.885933907
-320.6,0.885852966
-320.5,0.88555224
-320.4,0.885222595
-320.3,0.884748355
-320.2,0.88408325
-320.1,0.883481767
-320,0.882810877
-319.9,0.882469665
-319.8,0.882342453
-319.7,0.882261512
-319.6,0.882116949
-319.5,0.881752602
-319.4,0.881237875
-319.3,0.880601689
-319.2,0.880023341
-319.1,0.87945656
-319,0.878889779
-318.9,0.878288296
-318.8,0.877571136
-318.7,0.876830841
-318.6,0.876107898
-318.5,0.875448576
-318.4,0.874864444
-318.3,0.874436475
-318.2,0.874031641
-318.1,0.873806104
-318,0.873435973
-317.9,0.873054274
-317.8,0.872585818
-317.7,0.872024821
-317.6,0.871521662
-317.5,0.871157315
-317.4,0.870966481
-317.3,0.870827702
-317.2,0.87060795
-317.1,0.870341927
-317,0.870018066
-316.9,0.869462853
-316.8,0.868855585
-316.7,0.868306156
-316.6,0.8678377
-316.5,0.867432866
-316.4,0.867178411
-316.3,0.866802495
-316.2,0.866362958
-316.1,0.866015962
-316,0.865738372
-315.9,0.865385592
-315.8,0.864980758
-315.7,0.864680032
-315.6,0.864257846
-315.5,0.863696849
-315.4,0.863245745
-315.3,0.862736802
-315.2,0.86227413
-315.1,0.861828809
-315,0.861348786
-314.9,0.860874546
-314.8,0.86040609
-314.7,0.859891363
-314.6,0.859446042
-314.5,0.859099046
-314.4,0.858740482
-314.3,0.858578568
-314.2,0.858318329
-314.1,0.85822582
-314,0.857988716
-313.9,0.857855721
-313.8,0.857705374
-313.7,0.857508757
-313.6,0.85728322
-313.5,0.856953576
-313.4,0.856502471
-313.3,0.856005096
-313.2,0.855322639
-313.1,0.854657534
-313,0.854050267
-312.9,0.85353554
-312.8,0.85293984
-312.7,0.852454033
-312.6,0.852095469
-312.5,0.851742689
-312.4,0.851372558
-312.3,0.851123886
-312.2,0.850938837
-312.1,0.850776922
-312,0.850562954
-311.9,0.85025066
-311.8,0.849892097
-311.7,0.849302181
-311.6,0.848665994
-311.5,0.847989321
-311.4,0.847364703
-311.3,0.846873111
-311.2,0.846636008
-311.1,0.846364201
-311,0.846364233
-310.9,0.846289076
-310.8,0.846271756
-310.7,0.846219734
-310.6,0.846167712
-310.5,0.846034716
-310.4,0.845947991
-310.3,0.84569932
-310.2,0.845525838
-310.1,0.845103652
-310,0.844658331
-309.9,0.844126254
-309.8,0.843565257
-309.7,0.842975341
-309.6,0.842443263
-309.5,0.841963239
-309.4,0.841564189
-309.3,0.841170922
-309.2,0.840870197
-309.1,0.84071985
-309,0.840482746
-308.9,0.840268777
-308.8,0.840228323
-308.7,0.840164733
-308.6,0.840176332
-308.5,0.84012431
-308.4,0.839921909
-308.3,0.839812049
-308.2,0.839482404
-308.1,0.839106489
-308,0.838771061
-307.9,0.838244766
-307.8,0.837822581
-307.7,0.837568126
-307.6,0.837128589
-307.5,0.836827863
-307.4,0.836637029
-307.3,0.836417277
-307.2,0.83614547
-307.1,0.835896799
-307,0.835792722
-306.9,0.835671294
-306.8,0.835601921
-306.7,0.835411087
-306.6,0.835185551
-306.5,0.834931096
-306.4,0.83450891
-306.3,0.833965265
-306.2,0.833438971
-306.1,0.832901109
-306,0.832490491
-305.9,0.832126143
-305.8,0.831912175
-305.7,0.831709774
-305.6,0.831680887
-305.5,0.831518972
-305.4,0.831582626
-305.3,0.83176774
-305.2,0.832045395
-305.1,0.832265211
-305,0.832496595
-304.9,0.832675925
-304.8,0.832606552
-304.7,0.832398367
-304.6,0.832109209
-304.5,0.831889456
-304.4,0.831571379
-304.3,0.831363194
-304.2,0.831137658
-304.1,0.830836932
-304,0.830622963
-303.9,0.830287535
-303.8,0.830038863
-303.7,0.82980176
-303.6,0.82961671
-303.5,0.82950685
-303.4,0.829506882
-303.3,0.829512698
-303.2,0.829518513
-303.1,0.829472275
-303,0.829321928
-302.9,0.829188933
-302.8,0.829160046
-302.7,0.829241051
-302.6,0.829385678
-302.5,0.829651765
-302.4,0.829836879
-302.3,0.830074047
-302.2,0.830351702
-302.1,0.830450058
-302,0.830698794
-301.9,0.83091861
-301.8,0.831225184
-301.7,0.831392946
-301.6,0.831659033
-301.5,0.831936688
-301.4,0.832185424
-301.3,0.832318483
-301.2,0.832434191
-301.1,0.832573035
-301,0.83265404
-300.9,0.832677207
-300.8,0.83281605
-300.7,0.832920191
-300.6,0.833197846
-300.5,0.833533338
-300.4,0.833793641
-300.3,0.833978755
-300.2,0.834198572
-300.1,0.834308496
-300,0.834285393
-299.9,0.834401101
-299.8,0.834539944
-299.7,0.834846518
-299.6,0.835222497
-299.5,0.835529071
-299.4,0.835887699
-299.3,0.836223191
-299.2,0.836419873
-299.1,0.836668608
-299,0.837044587
-298.9,0.837530459
-298.8,0.838022114
-298.7,0.838519553
-298.6,0.839045912
-298.5,0.83945081
-298.4,0.839803654
-298.3,0.840046606
-298.2,0.840335828
-298.1,0.840445752
-298,0.84034746
-297.9,0.84040533
-297.8,0.840370659
-297.7,0.840341772
-297.6,0.840584724
-297.5,0.84087973
-297.4,0.841492845
-297.3,0.842279474
-297.2,0.842904157
-297.1,0.843592462
-297,0.844194009
-296.9,0.844523718
-296.8,0.84476667
-296.7,0.845102163
-296.6,0.84553598
-296.5,0.846195366
-296.4,0.846953076
-296.3,0.847722354
-296.2,0.848393307
-296.1,0.849041125
-296,0.849428672
-295.9,0.849729462
-295.8,0.849983981
-295.7,0.850163311
-295.6,0.850487236
-295.5,0.850782242
-295.4,0.851204492
-295.3,0.851771337
-295.2,0.85224564
-295.1,0.852737296
-295,0.853171113
-294.9,0.853552876
-294.8,0.853865234
-294.7,0.854166023
-294.6,0.854478381
-294.5,0.854594089
-294.4,0.854900663
-294.3,0.855265074
-294.2,0.855901325
-294.1,0.856497088
-294,0.857081285
-293.9,0.8576944
-293.8,0.858232326
-293.7,0.858758684
-293.6,0.859204069
-293.5,0.859684156
-293.4,0.860117974
-293.3,0.860574926
-293.2,0.861199609
-293.1,0.861772237
-293,0.862344866
-292.9,0.862929062
-292.8,0.863507475
-292.7,0.863987562
-292.6,0.864398244
-292.5,0.864941954
-292.4,0.865572421
-292.3,0.866075644
-292.2,0.866555731
-292.1,0.866949062
-292,0.867382879
-291.9,0.86760848
-291.8,0.868019162
-291.7,0.868429844
-291.6,0.868857877
-291.5,0.869551966
-291.4,0.870211351
-291.3,0.870812899
-291.2,0.871397095
-291.1,0.871935021
-291,0.872542352
-290.9,0.873167035
-290.8,0.873866907
-290.7,0.874636185
-290.6,0.875509572
-290.5,0.876377174
-290.4,0.877186939
-290.3,0.87784054
-290.2,0.87862717
-290.1,0.879194015
-290,0.879558426
-289.9,0.880003811
-289.8,0.880275682
-289.7,0.880564904
-289.6,0.881125965
-289.5,0.881623404
-289.4,0.882271222
-289.3,0.883011581
-289.2,0.883769291
-289.1,0.884486515
-289,0.884972387
-288.9,0.885371501
-288.8,0.885654939
-288.7,0.885874756
-288.6,0.886100356
-288.5,0.886522606
-288.4,0.886979559
-288.3,0.887598458
-288.2,0.888072762
-288.1,0.88864539
-288,0.88931056
-287.9,0.889998864
-287.8,0.890721872
-287.7,0.891577907
-287.6,0.892329833
-287.5,0.893029705
-287.4,0.893654388
-287.3,0.894163395
-287.2,0.894568293
-287.1,0.895146706
-287,0.895962254
-286.9,0.89683564
-286.8,0.897651189
-286.7,0.898408899
-286.6,0.899050933
-286.5,0.899201344
-286.4,0.899270782
-286.3,0.899351787
-286.2,0.899467495
-286.1,0.899693095
-286,0.900178967
-285.9,0.900734244
-285.8,0.901341576
-285.7,0.901833231
-285.6,0.902463697
-285.5,0.902984272
-285.4,0.903597387
-285.3,0.904320394
-285.2,0.904962429
-285.1,0.905749058
-285,0.906495201
-284.9,0.907079397
-284.8,0.907692512
-284.7,0.90834033
-284.6,0.908953445
-284.5,0.909630182
-284.4,0.910069783
-284.3,0.910723385
-284.2,0.911215041
-284.1,0.911677777
-284,0.912146297
-283.9,0.912690007
-283.8,0.913297338
-283.7,0.914008778
-283.6,0.914847461
-283.5,0.915437441
-283.4,0.915853907
-283.3,0.916177832
-283.2,0.916524892
-283.1,0.917028115
-283,0.917583393
-282.9,0.91818494
-282.8,0.918925299
-282.7,0.919833388
-282.6,0.920556396
-282.5,0.921111673
-282.4,0.921562842
-282.3,0.922008226
-282.2,0.922499882
-282.1,0.922991537
-282,0.923639355
-281.9,0.924437552
-281.8,0.925472885
-281.7,0.926427245
-281.6,0.927323766
-281.5,0.928226071
-281.4,0.929018485
-281.3,0.929747276
-281.2,0.930476067
-281.1,0.931233777
-281,0.93185846
-280.9,0.932338548
-280.8,0.932922744
-280.7,0.933443318
-280.6,0.93397546
-280.5,0.934415061
-280.4,0.935010825
-280.3,0.935612373
-280.2,0.936364299
-280.1,0.937058388
-280,0.937555827
-279.9,0.938255699
-279.8,0.938799409
-279.7,0.939331551
-279.6,0.939852125
-279.5,0.940274375
-279.4,0.941026301
-279.3,0.941691471
-279.2,0.943021777
-279.1,0.943866245
-279,0.944687577
-278.9,0.945422152
-278.8,0.946075754
-278.7,0.946683085
-278.6,0.947209443
-278.5,0.94767218
-278.4,0.948007672
-278.3,0.948372084
-278.2,0.948881091
-278.1,0.949511557
-278,0.950199862
-277.9,0.950818761
-277.8,0.951501282
-277.7,0.952339965
-277.6,0.953005135
-277.5,0.953693439
-277.4,0.954312338
-277.3,0.954809778
-277.2,0.955451812
-277.1,0.956250009
-277,0.957129179
-276.9,0.957788564
-276.8,0.958366977
-276.7,0.958974308
-276.6,0.959593207
-276.5,0.960073295
-276.4,0.960530247
-276.3,0.96135158
-276.2,0.962236534
-276.1,0.963237164
-276,0.964179956
-275.9,0.964827774
-275.8,0.965273158
-275.7,0.965620219
-275.6,0.965886306
-275.5,0.966250717
-275.4,0.966742373
-275.3,0.96746538
-275.2,0.968124766
-275.1,0.968789935
-275,0.969437753
-274.9,0.969952544
-274.8,0.970195496
-274.7,0.970577259
-274.6,0.971005292
-274.5,0.97136392
-274.4,0.971884494
-274.3,0.972486042
-274.2,0.973220617
-274.1,0.973868435
-274,0.974458415
-273.9,0.975019476
-273.8,0.975516915
-273.7,0.976014354
-273.6,0.976419253
-273.5,0.976824151
-273.4,0.977229049
-273.3,0.97774384
-273.2,0.978281765
-273.1,0.979108881
-273,0.979941781
-272.9,0.98068214
-272.8,0.981382012
-272.7,0.982128155
-272.6,0.982567756
-272.5,0.983053627
-272.4,0.983418039
-272.3,0.983938613
-272.2,0.984343512
-272.1,0.984910357
-272,0.985616013
-271.9,0.986258047
-271.8,0.986929
-271.7,0.987432223
-271.6,0.987848689
-271.5,0.988172614
-271.4,0.988560161
-271.3,0.988895653
-271.2,0.989202227
-271.1,0.989427827
-271,0.989653428
-270.9,0.989977353
-270.8,0.99004679
-270.7,0.990318661
-270.6,0.990532694
-270.5,0.991035917
-270.4,0.991654816
-270.3,0.992204309
-270.2,0.992915749
-270.1,0.993557783
-270,0.994228737
-269.9,0.994679905
-269.8,0.994853452
-269.7,0.995102187
-269.6,0.995275733
-269.5,0.995697983
-269.4,0.995987205
-269.3,0.996126048
-269.2,0.996449974
-269.1,0.996692925
-269,0.997005283
-268.9,0.997288721
-268.8,0.997629998
-268.7,0.997809328
-268.6,0.998081198
-268.5,0.998335718
-268.4,0.998474561
-268.3,0.998752216
-268.2,0.998966248
-268.1,0.999053038
-268,0.999284422
-267.9,0.999729807
-267.8,1.00003638
-267.7,1.000429711
-267.6,1.001002339
-267.5,1.001505562
-267.4,1.001806352
-267.3,1.002124493
-267.2,1.002402148
-267.1,1.002616181
-267,1.002812862
-266.9,1.003310301
-266.8,1.003692064
-266.7,1.004241558
-266.6,1.004814186
-266.5,1.005305842
-266.4,1.005629767
-266.3,1.00581488
-266.2,1.005930589
-266.1,1.006109919
-266,1.006271897
-265.9,1.006613174
-265.8,1.006844558
-265.7,1.007018104
-265.6,1.007197434
-265.5,1.007278439
-265.4,1.007342093
-265.3,1.007353693
-265.2,1.007272751
-265.1,1.007353757
-265,1.007469465
-264.9,1.007787606
-264.8,1.007984287
-264.7,1.008429672
-264.6,1.008984949
-264.5,1.009389848
-264.4,1.009858368
-264.3,1.010257482
-264.2,1.010575624
-264.1,1.01074917
-264,1.010859094
-263.9,1.010992154
-263.8,1.011073159
-263.7,1.01102692
-263.6,1.011107926
-263.5,1.011246769
-263.4,1.011402964
-263.3,1.011582294
-263.2,1.011964057
-263.1,1.012449928
-263,1.012843259
-262.9,1.013248157
-262.8,1.013641488
-262.7,1.013647304
-262.6,1.013514308
-262.5,1.013531692
-262.4,1.013566427
-262.3,1.013913487
-262.2,1.014277899
-262.1,1.014648094
-262,1.015000938
-261.9,1.015249674
-261.8,1.015388517
-261.7,1.015469522
-261.6,1.015689339
-261.5,1.016105805
-261.4,1.016447081
-261.3,1.01665533
-261.2,1.016950336
-261.1,1.017077612
-261,1.016956184
-260.9,1.016817405
-260.8,1.016684409
-260.7,1.016707577
-260.6,1.016985231
-260.5,1.017320724
-260.4,1.017563676
-260.3,1.017662032
-260.2,1.01780666
-260.1,1.017783556
-260,1.017876129
-259.9,1.018061243
-259.8,1.018298411
-259.7,1.018576066
-259.6,1.018865288
-259.5,1.018766995
-259.4,1.018622432
-259.3,1.018431599
-259.2,1.018223414
-259.1,1.018327554
-259,1.018449046
-258.9,1.018796107
-258.8,1.019195221
-258.7,1.019576984
